Spin Matrix: 20x20
Number of Monte Carlo Cycles: 100000
Spin Configuration: Unordered
All values are given per spin!
╔═══════════════╤══════════════╤═══════════════╤═══════════════╤════════════════╗
║  Temperature  │    Energy    │ Heat Capacity │ Magnetization │ Susceptibility ║
╟───────────────┼──────────────┼───────────────┼───────────────┼────────────────╢
1   256.0000
2   224.0000
3   201.0000
4   192.0000
5   180.4000
6   172.8333
7   168.4286
8   165.6250
9   163.4444
10   161.6000
11   158.5455
12   154.9167
13   151.6154
14   148.8571
15   146.4667
16   143.1875
17   142.0000
18   139.8333
19   137.4211
20   135.5500
21   134.0000
22   132.4091
23   131.5652
24   131.1250
25   131.6000
26   131.8846
27   132.2593
28   132.1429
29   131.3793
30   131.7000
31   131.0000
32   130.0625
33   129.0606
34   128.8235
35   128.2857
36   127.6111
37   127.3784
38   126.5263
39   126.2308
40   125.8750
41   125.5366
42   124.9762
43   123.8372
44   123.3182
45   122.2667
46   121.7826
47   120.8511
48   120.5000
49   119.7959
50   119.4400
51   118.9804
52   118.2500
53   117.7358
54   117.4444
55   116.6909
56   116.2143
57   116.0175
58   115.5517
59   115.1525
60   115.0333
61   114.8525
62   114.6290
63   114.3651
64   114.2500
65   114.1846
66   114.1515
67   114.1194
68   113.9412
69   113.7681
70   113.9429
71   113.9155
72   114.0139
73   113.9041
74   113.9459
75   113.8667
76   113.8816
77   114.0130
78   114.1410
79   114.0759
80   114.3375
81   114.2963
82   114.2683
83   114.3012
84   114.1905
85   114.3294
86   114.2907
87   114.3448
88   114.3523
89   114.3034
90   114.2333
91   114.3956
92   114.6957
93   115.0860
94   115.2447
95   115.2105
96   115.3125
97   115.3608
98   115.4694
99   115.4242
100   115.4500
101   115.4950
102   115.2647
103   115.1748
104   114.8173
105   114.6667
106   114.5849
107   114.4206
108   114.3333
109   114.2110
110   114.2182
111   114.0991
112   114.1429
113   114.2389
114   114.3070
115   114.2348
116   114.1897
117   114.0256
118   113.8475
119   113.6891
120   113.7417
121   113.8347
122   113.9098
123   113.9024
124   113.9919
125   114.0560
126   114.1905
127   114.1969
128   114.1250
129   114.1783
130   114.1846
131   114.1527
132   114.0152
133   113.9699
134   113.7239
135   113.4667
136   113.4485
137   113.6788
138   113.7464
139   113.9496
140   113.9714
141   114.0284
142   113.9789
143   113.9790
144   114.1181
145   114.3379
146   114.5000
147   114.5578
148   114.6554
149   114.6040
150   114.6733
151   114.6954
152   114.5395
153   114.2941
154   114.1753
155   114.1419
156   114.0000
157   113.8662
158   113.8671
159   113.6541
160   113.5687
161   113.6770
162   113.6296
163   113.6994
164   113.7256
165   113.6970
166   113.6747
167   113.6707
168   113.6190
169   113.5207
170   113.5471
171   113.7368
172   113.8140
173   113.8555
174   113.9483
175   113.9943
176   114.0511
177   113.8927
178   113.9101
179   113.7765
180   113.7667
181   113.7735
182   113.6154
183   113.4536
184   113.3207
185   113.2541
186   113.1075
187   113.0374
188   112.9415
189   112.8836
190   112.8105
191   112.6859
192   112.6302
193   112.5648
194   112.5412
195   112.5385
196   112.5612
197   112.5635
198   112.6212
199   112.7035
200   112.7500
201   112.8159
202   112.8812
203   112.9113
204   113.0000
205   113.0244
206   113.1311
207   113.2464
208   113.2548
209   113.2632
210   113.2429
211   113.2796
212   113.2642
213   113.2019
214   113.1916
215   113.1814
216   113.1019
217   113.0046
218   112.9220
219   112.8721
220   112.9455
221   112.9729
222   113.0270
223   113.0942
224   113.2232
225   113.3556
226   113.4912
227   113.6564
228   113.8026
229   113.8952
230   114.0043
231   114.1818
232   114.2414
233   114.3047
234   114.3034
235   114.2851
236   114.3220
237   114.2194
238   114.0798
239   113.9582
240   113.9125
241   113.8714
242   113.9545
243   114.0082
244   113.9385
245   113.9633
246   113.9715
247   114.0040
248   114.0444
249   114.0763
250   114.0040
251   114.0757
252   114.1389
253   114.2174
254   114.3307
255   114.4078
256   114.4766
257   114.5058
258   114.5039
259   114.5290
260   114.4885
261   114.4330
262   114.3893
263   114.4563
264   114.5227
265   114.6415
266   114.6692
267   114.7491
268   114.8582
269   114.9777
270   115.0296
271   115.0886
272   115.1029
273   115.2234
274   115.3175
275   115.3636
276   115.3949
277   115.5343
278   115.6223
279   115.7204
280   115.7964
281   115.8327
282   115.8582
283   115.8410
284   115.9930
285   116.1439
286   116.2238
287   116.2613
288   116.2049
289   116.2145
290   116.2069
291   116.2474
292   116.3288
293   116.3857
294   116.3673
295   116.3525
296   116.3209
297   116.3569
298   116.4094
299   116.5017
300   116.5867
301   116.6246
302   116.7483
303   116.7987
304   116.8454
305   116.7639
306   116.7778
307   116.7883
308   116.8377
309   116.9353
310   116.9613
311   117.0611
312   117.1282
313   117.2268
314   117.2707
315   117.2635
316   117.2437
317   117.2902
318   117.2767
319   117.3292
320   117.3469
321   117.3489
322   117.3789
323   117.4272
324   117.3981
325   117.4154
326   117.4356
327   117.4159
328   117.3689
329   117.3465
330   117.3606
331   117.2810
332   117.2289
333   117.2222
334   117.1647
335   117.1463
336   117.1101
337   117.1869
338   117.2544
339   117.2124
340   117.1735
341   117.1584
342   117.1491
343   117.1195
344   117.1453
345   117.1478
346   117.1474
347   117.1873
348   117.2471
349   117.2951
350   117.2971
351   117.2564
352   117.2159
353   117.2153
354   117.1667
355   117.1380
356   117.1629
357   117.1681
358   117.1536
359   117.1365
360   117.0889
361   117.0637
362   117.0331
363   116.9477
364   116.9973
365   117.0411
366   117.1011
367   117.1580
368   117.1603
369   117.1030
370   117.0838
371   117.0674
372   116.9812
373   116.9973
374   116.9733
375   116.9493
376   116.9681
377   116.9204
378   116.8889
379   116.8681
380   116.8395
381   116.7612
382   116.7042
383   116.6345
384   116.5495
385   116.4156
386   116.2358
387   116.0413
388   115.9536
389   115.8072
390   115.6641
391   115.5601
392   115.3929
393   115.3384
394   115.2665
395   115.2203
396   115.1692
397   115.0806
398   114.9698
399   114.8446
400   114.7125
401   114.6209
402   114.5398
403   114.4541
404   114.4307
405   114.3679
406   114.3350
407   114.3194
408   114.3015
409   114.2518
410   114.2073
411   114.1825
412   114.1990
413   114.1622
414   114.1329
415   114.1590
416   114.1490
417   114.1391
418   114.1531
419   114.1313
420   114.0976
421   114.0736
422   114.0308
423   114.0662
424   114.1344
425   114.1059
426   114.1291
427   114.0984
428   114.0935
429   114.0186
430   113.9349
431   113.8794
432   113.8495
433   113.8753
434   113.8387
435   113.8207
436   113.8096
437   113.8490
438   113.8744
439   113.8793
440   113.8636
441   113.8639
442   113.8891
443   113.9278
444   113.9324
445   113.9258
446   113.9036
447   113.9351
448   113.8862
449   113.8976
450   113.9200
451   113.9357
452   113.9757
453   114.0265
454   114.0308
455   114.1033
456   114.1031
457   114.1422
458   114.1507
459   114.1786
460   114.2152
461   114.2798
462   114.2727
463   114.3218
464   114.3341
465   114.3527
466   114.3541
467   114.3790
468   114.4209
469   114.4840
470   114.4851
471   114.4692
472   114.4428
473   114.4249
474   114.4451
475   114.4695
476   114.4916
477   114.5744
478   114.6360
479   114.6931
480   114.7000
481   114.7339
482   114.7386
483   114.7474
484   114.7686
485   114.7959
486   114.7840
487   114.7906
488   114.8258
489   114.8466
490   114.8918
491   114.9369
492   114.9776
493   115.0385
494   115.0769
495   115.1717
496   115.1956
497   115.1952
498   115.2249
499   115.2766
500   115.3020
501   115.4112
502   115.4721
503   115.4712
504   115.4444
505   115.4198
506   115.4526
507   115.4280
508   115.4665
509   115.4892
510   115.4843
511   115.4403
512   115.4062
513   115.3801
514   115.3599
515   115.3689
516   115.3624
517   115.3868
518   115.3880
519   115.3757
520   115.3673
521   115.3743
522   115.3793
523   115.3920
524   115.4084
525   115.3905
526   115.3536
527   115.2865
528   115.2633
529   115.2287
530   115.1943
531   115.1827
532   115.1673
533   115.1801
534   115.1742
535   115.1645
536   115.1660
537   115.1508
538   115.1301
539   115.1410
540   115.0870
541   115.0832
542   115.0627
543   115.0497
544   115.0184
545   114.9927
546   114.9670
547   114.8958
548   114.8777
549   114.8215
550   114.7509
551   114.6425
552   114.5326
553   114.4286
554   114.3610
555   114.2775
556   114.1942
557   114.1005
558   114.0000
559   113.8873
560   113.7893
561   113.6863
562   113.5730
563   113.4636
564   113.3723
565   113.2832
566   113.1926
567   113.1129
568   113.0246
569   112.9736
570   112.9579
571   112.9299
572   112.9108
573   112.8674
574   112.8397
575   112.7913
576   112.7639
577   112.7366
578   112.7215
579   112.6960
580   112.6724
581   112.6454
582   112.6357
583   112.6364
584   112.6199
585   112.5880
586   112.5256
587   112.4617
588   112.3997
589   112.3548
590   112.3051
591   112.2809
592   112.2652
593   112.2344
594   112.2155
595   112.2218
596   112.2349
597   112.2462
598   112.2609
599   112.2805
600   112.2733
601   112.2795
602   112.2791
603   112.2786
604   112.2831
605   112.2711
606   112.2442
607   112.1730
608   112.1612
609   112.1494
610   112.1492
611   112.1358
612   112.0997
613   112.0734
614   112.0391
615   112.0114
616   111.9903
617   111.9919
618   111.9935
619   111.9822
620   111.9758
621   111.9469
622   111.9164
623   111.8957
624   111.8686
625   111.8240
626   111.7652
627   111.7384
628   111.6895
629   111.6948
630   111.7175
631   111.7147
632   111.6772
633   111.6509
634   111.6262
635   111.5921
636   111.5975
637   111.6138
638   111.6223
639   111.5994
640   111.5859
641   111.5429
642   111.5249
643   111.4666
644   111.4317
645   111.3907
646   111.3669
647   111.3292
648   111.3071
649   111.2727
650   111.2585
651   111.2442
652   111.2316
653   111.2190
654   111.1881
655   111.1710
656   111.1677
657   111.1598
658   111.1459
659   111.1533
660   111.1015
661   111.0877
662   111.0544
663   110.9955
664   110.9217
665   110.8662
666   110.7808
667   110.7091
668   110.6587
669   110.5859
670   110.5597
671   110.5052
672   110.4866
673   110.4413
674   110.3872
675   110.3274
676   110.3003
677   110.2482
678   110.2109
679   110.1856
680   110.1559
681   110.0940
682   110.0704
683   110.0805
684   110.0716
685   110.0482
686   110.0306
687   110.0044
688   109.9811
689   109.9361
690   109.8826
691   109.8365
692   109.7775
693   109.7100
694   109.6527
695   109.5986
696   109.5287
697   109.4548
698   109.3768
699   109.2947
700   109.2386
701   109.1812
702   109.1311
703   109.1024
704   109.1094
705   109.0993
706   109.0496
707   109.0311
708   109.0282
709   109.0296
710   109.0268
711   108.9958
712   108.9888
713   108.9748
714   108.9860
715   108.9720
716   108.9804
717   108.9749
718   108.9680
719   108.9416
720   108.9458
721   108.9376
722   108.9044
723   108.8824
724   108.8591
725   108.8359
726   108.8223
727   108.8074
728   108.7720
729   108.7311
730   108.6740
731   108.6170
732   108.5956
733   108.5989
734   108.5886
735   108.5592
736   108.5557
737   108.5577
738   108.5623
739   108.5575
740   108.5716
741   108.5452
742   108.5202
743   108.5047
744   108.5054
745   108.4899
746   108.4558
747   108.4458
748   108.4158
749   108.4045
750   108.3987
751   108.3795
752   108.3564
753   108.3519
754   108.3475
755   108.3417
756   108.2884
757   108.2510
758   108.2256
759   108.1858
760   108.1842
761   108.1603
762   108.1378
763   108.1114
764   108.0877
765   108.0810
766   108.0470
767   108.0065
768   107.9557
769   107.9220
770   107.9143
771   107.8768
772   107.8446
773   107.8047
774   107.7726
775   107.7445
776   107.7436
777   107.7465
778   107.7494
779   107.7587
780   107.7795
781   107.7964
782   107.8069
783   107.8455
784   107.8597
785   107.8790
786   107.8690
787   107.8526
788   107.8122
789   107.8035
790   107.7911
791   107.7484
792   107.7323
793   107.7465
794   107.7783
795   107.7799
796   107.7977
797   107.8206
798   107.8609
799   107.9136
800   107.9663
801   107.9800
802   108.0224
803   108.0324
804   108.0672
805   108.1081
806   108.1427
807   108.1660
808   108.1968
809   108.1928
810   108.2037
811   108.1850
812   108.1712
813   108.1341
814   108.1278
815   108.1411
816   108.1446
817   108.1444
818   108.1687
819   108.2076
820   108.2280
821   108.2546
822   108.2628
823   108.2795
824   108.3010
825   108.3261
826   108.3208
827   108.3374
828   108.3635
829   108.3788
830   108.4108
831   108.4344
832   108.4207
833   108.4322
834   108.4101
835   108.3976
836   108.3864
837   108.4074
838   108.4427
839   108.4732
840   108.4964
841   108.5030
842   108.5024
843   108.5350
844   108.5521
845   108.5751
846   108.5957
847   108.6009
848   108.6285
849   108.6514
850   108.6718
851   108.7004
852   108.7371
853   108.7714
854   108.8080
855   108.8386
856   108.8353
857   108.8681
858   108.8998
859   108.9453
860   108.9430
861   108.9895
862   108.9942
863   109.0162
864   109.0324
865   109.0509
866   109.0993
867   109.1292
868   109.1578
869   109.1461
870   109.1632
871   109.1871
872   109.2099
873   109.2142
874   109.2151
875   109.2263
876   109.2443
877   109.2805
878   109.2961
879   109.2992
880   109.2955
881   109.3258
882   109.3673
883   109.3907
884   109.4106
885   109.4158
886   109.4142
887   109.4284
888   109.4516
889   109.4634
890   109.4854
891   109.5140
892   109.5415
893   109.5398
894   109.5414
895   109.5475
896   109.5446
897   109.5485
898   109.5501
899   109.5417
900   109.5367
901   109.5339
902   109.5377
903   109.5437
904   109.5365
905   109.5215
906   109.5243
907   109.5193
908   109.5154
909   109.5226
910   109.5429
911   109.5554
912   109.5658
913   109.5597
914   109.5449
915   109.5421
916   109.5218
917   109.5180
918   109.5109
919   109.5190
920   109.5272
921   109.5353
922   109.5477
923   109.5536
924   109.5639
925   109.5611
926   109.5626
927   109.5868
928   109.6088
929   109.6136
930   109.6215
931   109.6219
932   109.6352
933   109.6699
934   109.6842
935   109.7091
936   109.7212
937   109.7513
938   109.7665
939   109.7487
940   109.7500
941   109.7481
942   109.7367
943   109.7306
944   109.7267
945   109.7259
946   109.7114
947   109.7149
948   109.7278
949   109.7155
950   109.7211
951   109.7245
952   109.7227
953   109.7125
954   109.6981
955   109.7099
956   109.7019
957   109.7011
958   109.6816
959   109.6590
960   109.6615
961   109.6649
962   109.6632
963   109.6636
964   109.6483
965   109.6238
966   109.6046
967   109.5988
968   109.6054
969   109.5934
970   109.6000
971   109.6292
972   109.6471
973   109.6567
974   109.6807
975   109.7262
976   109.7643
977   109.7871
978   109.8057
979   109.8264
980   109.8500
981   109.8889
982   109.9002
983   109.9044
984   109.9075
985   109.9086
986   109.9371
987   109.9483
988   109.9443
989   109.9515
990   109.9576
991   109.9647
992   109.9919
993   110.0111
994   110.0372
995   110.0462
996   110.0612
997   110.0662
998   110.0521
999   110.0450
1000   110.0580
1001   110.0629
1002   110.0659
1003   110.0668
1004   110.0737
1005   110.0677
1006   110.0696
1007   110.0616
1008   110.0645
1009   110.0743
1010   110.0871
1011   110.0950
1012   110.0968
1013   110.0879
1014   110.0819
1015   110.0650
1016   110.0669
1017   110.0649
1018   110.0452
1019   110.0451
1020   110.0275
1021   110.0039
1022   109.9892
1023   109.9834
1024   109.9629
1025   109.9746
1026   109.9893
1027   110.0166
1028   110.0272
1029   110.0360
1030   110.0670
1031   110.0844
1032   110.0998
1033   110.1152
1034   110.1122
1035   110.1005
1036   110.1071
1037   110.1099
1038   110.1204
1039   110.1261
1040   110.1490
1041   110.1575
1042   110.1488
1043   110.1678
1044   110.1686
1045   110.1675
1046   110.1778
1047   110.1719
1048   110.1603
1049   110.1773
1050   110.2000
1051   110.2008
1052   110.2148
1053   110.2137
1054   110.2192
1055   110.2028
1056   110.1960
1057   110.1883
1058   110.2032
1059   110.2011
1060   110.2104
1061   110.2253
1062   110.2524
1063   110.2719
1064   110.2707
1065   110.2751
1066   110.3021
1067   110.3299
1068   110.3652
1069   110.3957
1070   110.4187
1071   110.4230
1072   110.4338
1073   110.4632
1074   110.4860
1075   110.5098
1076   110.5223
1077   110.5348
1078   110.5853
1079   110.5876
1080   110.6130
1081   110.6364
1082   110.6377
1083   110.6353
1084   110.6301
1085   110.6138
1086   110.6059
1087   110.5952
1088   110.5965
1089   110.5932
1090   110.6248
1091   110.6572
1092   110.6603
1093   110.6834
1094   110.7011
1095   110.7050
1096   110.7007
1097   110.7074
1098   110.7113
1099   110.7125
1100   110.7155
1101   110.7148
1102   110.7087
1103   110.7235
1104   110.7473
1105   110.7584
1106   110.7541
1107   110.7579
1108   110.7726
1109   110.7701
1110   110.7640
1111   110.7615
1112   110.7806
1113   110.7772
1114   110.7792
1115   110.7892
1116   110.7966
1117   110.8218
1118   110.8417
1119   110.8570
1120   110.8714
1121   110.8814
1122   110.8832
1123   110.8789
1124   110.8763
1125   110.8853
1126   110.8952
1127   110.9051
1128   110.8936
1129   110.9070
1130   110.9053
1131   110.9187
1132   110.9187
1133   110.9214
1134   110.9074
1135   110.9022
1136   110.9102
1137   110.9103
1138   110.9051
1139   110.8955
1140   110.9061
1141   110.9238
1142   110.9089
1143   110.9038
1144   110.8846
1145   110.8751
1146   110.8709
1147   110.8919
1148   110.8990
1149   110.9164
1150   110.9383
1151   110.9453
1152   110.9566
1153   110.9714
1154   110.9792
1155   110.9844
1156   111.0104
1157   111.0458
1158   111.0665
1159   111.0906
1160   111.1017
1161   111.1068
1162   111.1015
1163   111.1109
1164   111.1314
1165   111.1322
1166   111.1321
1167   111.1397
1168   111.1515
1169   111.1411
1170   111.1444
1171   111.1597
1172   111.1698
1173   111.1662
1174   111.1695
1175   111.1787
1176   111.1845
1177   111.1954
1178   111.1927
1179   111.1976
1180   111.2085
1181   111.2278
1182   111.2369
1183   111.2451
1184   111.2736
1185   111.2743
1186   111.2875
1187   111.3176
1188   111.3359
1189   111.3549
1190   111.3664
1191   111.3812
1192   111.4010
1193   111.4040
1194   111.4121
1195   111.4251
1196   111.4348
1197   111.4520
1198   111.4616
1199   111.4429
1200   111.4475
1201   111.4330
1202   111.4301
1203   111.4298
1204   111.4252
1205   111.4183
1206   111.4096
1207   111.4167
1208   111.4147
1209   111.4293
1210   111.4355
1211   111.4938
1212   111.5149
1213   111.5293
1214   111.5297
1215   111.5778
1216   111.6094
1217   111.6270
1218   111.6593
1219   111.6669
1220   111.6598
1221   111.6503
1222   111.6473
1223   111.6239
1224   111.6111
1225   111.5788
1226   111.5644
1227   111.5452
1228   111.5269
1229   111.5305
1230   111.5268
1231   111.5102
1232   111.4838
1233   111.4566
1234   111.4473
1235   111.4332
1236   111.4256
1237   111.4042
1238   111.3861
1239   111.3664
1240   111.3540
1241   111.3570
1242   111.3519
1243   111.3516
1244   111.3593
1245   111.3598
1246   111.3604
1247   111.3793
1248   111.3846
1249   111.3915
1250   111.4080
1251   111.4245
1252   111.4561
1253   111.4796
1254   111.4960
1255   111.4956
1256   111.4729
1257   111.4622
1258   111.4571
1259   111.4504
1260   111.4587
1261   111.4647
1262   111.4580
1263   111.4687
1264   111.4873
1265   111.5170
1266   111.5213
1267   111.5320
1268   111.5379
1269   111.5485
1270   111.5504
1271   111.5799
1272   111.5943
1273   111.5954
1274   111.6209
1275   111.6384
1276   111.6544
1277   111.6868
1278   111.7160
1279   111.7443
1280   111.7711
1281   111.8033
1282   111.8206
1283   111.8410
1284   111.8614
1285   111.8817
1286   111.8950
1287   111.9200
1288   111.9278
1289   111.9488
1290   111.9876
1291   112.0318
1292   112.0596
1293   112.0835
1294   112.1167
1295   112.1274
1296   112.1443
